-1.20553E+02	 6.93500E+02
-1.17108E+02	 6.91500E+02
-1.13664E+02	 6.89200E+02
-1.10223E+02	 6.89500E+02
-1.06783E+02	 6.88000E+02
-1.03344E+02	 6.88700E+02
-9.99072E+01	 6.86700E+02
-9.64718E+01	 6.86900E+02
-9.30381E+01	 6.84700E+02
-8.96059E+01	 6.83800E+02
-8.61753E+01	 6.83400E+02
-8.27463E+01	 6.82400E+02
-7.93189E+01	 6.83300E+02
-7.58931E+01	 6.83200E+02
-7.24688E+01	 6.84500E+02
-6.90462E+01	 6.83800E+02
-6.56251E+01	 6.81700E+02
-6.22056E+01	 6.85600E+02
-5.87876E+01	 6.85100E+02
-5.53712E+01	 6.82600E+02
-5.19565E+01	 6.83800E+02
-4.85432E+01	 6.83900E+02
-4.51316E+01	 6.82400E+02
-4.17215E+01	 6.83000E+02
-3.83130E+01	 6.82900E+02
-3.49061E+01	 6.83100E+02
-3.15007E+01	 6.83300E+02
-2.80969E+01	 6.83300E+02
-2.46947E+01	 6.82800E+02
-2.12940E+01	 6.83400E+02
-1.78949E+01	 6.81900E+02
-1.44974E+01	 6.81000E+02
-1.11014E+01	 6.86200E+02
-7.70701E+00	 7.08700E+02
-4.31416E+00	 7.58100E+02
-9.22869E-01	 7.36900E+02
 2.46687E+00	 6.94100E+02
 5.85504E+00	 6.83000E+02
 9.24166E+00	 6.82500E+02
 1.26267E+01	 6.82300E+02
 1.60102E+01	 6.82300E+02
 1.93922E+01	 6.83100E+02
 2.27726E+01	 6.84000E+02
 2.61514E+01	 6.82200E+02
 2.95288E+01	 6.83000E+02
 3.29045E+01	 6.82900E+02
 3.62787E+01	 6.80900E+02
 3.96514E+01	 6.82100E+02
 4.30225E+01	 6.83300E+02
 4.63920E+01	 6.84200E+02
 4.97601E+01	 6.98600E+02
 5.31265E+01	 7.15300E+02
 5.64915E+01	 7.30600E+02
 5.98548E+01	 7.40200E+02
 6.32167E+01	 7.51600E+02
 6.65770E+01	 7.75000E+02
 6.99358E+01	 7.89000E+02
 7.32930E+01	 8.03300E+02
 7.66487E+01	 8.25700E+02
 8.00029E+01	 8.46600E+02
 8.33555E+01	 8.83100E+02
 8.67066E+01	 9.30300E+02
 9.00561E+01	 9.12800E+02
 9.34042E+01	 8.89900E+02
 9.67507E+01	 8.64300E+02
 1.00096E+02	 8.78600E+02
 1.03439E+02	 9.35300E+02
 1.06781E+02	 1.05570E+03
 1.10121E+02	 1.24550E+03
 1.13460E+02	 1.58240E+03
 1.16798E+02	 1.77240E+03
 1.20133E+02	 1.66140E+03
 1.23468E+02	 1.38880E+03
 1.26800E+02	 1.17070E+03
 1.30132E+02	 1.08590E+03
 1.33461E+02	 1.11750E+03
 1.36790E+02	 1.18320E+03
 1.40116E+02	 1.04610E+03
 1.43441E+02	 9.03400E+02
 1.46765E+02	 8.31700E+02
 1.50087E+02	 8.09600E+02
 1.53408E+02	 8.00500E+02
 1.56727E+02	 7.93000E+02
 1.60044E+02	 7.91200E+02
 1.63360E+02	 7.80400E+02
 1.66675E+02	 7.77600E+02
 1.69988E+02	 7.72900E+02
 1.73300E+02	 7.72200E+02
 1.76610E+02	 7.71800E+02
 1.79918E+02	 7.63000E+02
 1.83225E+02	 7.56800E+02
 1.86531E+02	 7.49900E+02
 1.89835E+02	 7.43100E+02
 1.93137E+02	 7.39600E+02
 1.96438E+02	 7.32300E+02
 1.99738E+02	 7.32100E+02
 2.03036E+02	 7.32900E+02
 2.06332E+02	 7.36800E+02
 2.09627E+02	 7.33900E+02
 2.12921E+02	 7.30800E+02
 2.16213E+02	 7.32100E+02
 2.19503E+02	 7.32500E+02
 2.22792E+02	 7.27300E+02
 2.26080E+02	 7.30600E+02
 2.29366E+02	 7.26500E+02
 2.32650E+02	 7.23500E+02
 2.35933E+02	 7.21900E+02
 2.39215E+02	 7.22800E+02
 2.42495E+02	 7.24900E+02
 2.45774E+02	 7.29800E+02
 2.49051E+02	 7.29800E+02
 2.52326E+02	 7.32400E+02
 2.55600E+02	 7.40900E+02
 2.58873E+02	 7.42300E+02
 2.62144E+02	 7.37800E+02
 2.65414E+02	 7.41800E+02
 2.68682E+02	 7.40000E+02
 2.71949E+02	 7.31600E+02
 2.75214E+02	 7.21900E+02
 2.78478E+02	 7.21300E+02
 2.81740E+02	 7.19400E+02
 2.85001E+02	 7.18000E+02
 2.88260E+02	 7.16400E+02
 2.91518E+02	 7.15600E+02
 2.94774E+02	 7.13500E+02
 2.98029E+02	 7.13800E+02
 3.01283E+02	 7.13100E+02
 3.04535E+02	 7.12700E+02
 3.07785E+02	 7.08700E+02
 3.11034E+02	 7.10700E+02
 3.14282E+02	 7.12100E+02
 3.17528E+02	 7.09000E+02
 3.20772E+02	 7.09700E+02
 3.24015E+02	 7.10100E+02
 3.27257E+02	 7.08700E+02
 3.30497E+02	 7.09100E+02
 3.33736E+02	 7.07400E+02
 3.36973E+02	 7.08900E+02
 3.40209E+02	 7.05900E+02
 3.43443E+02	 7.06600E+02
 3.46676E+02	 7.07800E+02
 3.49908E+02	 7.05400E+02
 3.53138E+02	 7.06600E+02
 3.56366E+02	 7.04700E+02
 3.59593E+02	 7.02700E+02
 3.62819E+02	 7.01400E+02
 3.66043E+02	 7.02600E+02
 3.69266E+02	 7.04200E+02
 3.72487E+02	 7.03700E+02
 3.75707E+02	 7.07700E+02
 3.78925E+02	 7.01600E+02
 3.82142E+02	 7.02400E+02
 3.85357E+02	 7.03100E+02
 3.88571E+02	 7.02900E+02
 3.91784E+02	 7.01400E+02
 3.94995E+02	 7.02200E+02
 3.98205E+02	 7.03000E+02
 4.01413E+02	 7.00400E+02
 4.04620E+02	 7.00800E+02
 4.07825E+02	 7.00100E+02
 4.11029E+02	 7.01400E+02
 4.14231E+02	 7.01500E+02
 4.17432E+02	 7.02400E+02
 4.20632E+02	 6.99500E+02
 4.23830E+02	 6.99200E+02
 4.27027E+02	 7.00200E+02
 4.30222E+02	 6.97800E+02
 4.33416E+02	 6.97000E+02
 4.36608E+02	 6.98400E+02
 4.39799E+02	 6.97200E+02
 4.42989E+02	 6.97500E+02
 4.46177E+02	 7.00300E+02
 4.49363E+02	 6.99800E+02
 4.52549E+02	 6.98800E+02
 4.55732E+02	 6.99000E+02
 4.58915E+02	 6.98100E+02
 4.62096E+02	 6.98900E+02
 4.65275E+02	 6.96700E+02
 4.68453E+02	 6.97300E+02
 4.71630E+02	 6.98400E+02
 4.74805E+02	 7.00100E+02
 4.77979E+02	 6.96200E+02
 4.81151E+02	 6.96700E+02
 4.84322E+02	 6.97300E+02
 4.87492E+02	 6.96800E+02
 4.90660E+02	 6.94700E+02
 4.93827E+02	 6.94000E+02
 4.96992E+02	 6.95600E+02
 5.00156E+02	 6.96300E+02
 5.03318E+02	 6.97900E+02
 5.06479E+02	 6.93100E+02
 5.09639E+02	 6.94300E+02
 5.12797E+02	 6.93900E+02
 5.15954E+02	 6.95300E+02
 5.19109E+02	 6.96100E+02
 5.22263E+02	 6.95100E+02
 5.25416E+02	 6.95900E+02
 5.28567E+02	 6.93800E+02
 5.31716E+02	 6.92400E+02
 5.34865E+02	 6.96400E+02
 5.38012E+02	 6.95300E+02
 5.41157E+02	 6.94400E+02
 5.44301E+02	 6.93700E+02
 5.47444E+02	 6.95500E+02
 5.50585E+02	 6.91900E+02
 5.53725E+02	 6.93900E+02
 5.56864E+02	 6.93500E+02
 5.60001E+02	 6.92300E+02
 5.63137E+02	 6.92400E+02
 5.66271E+02	 6.91300E+02
 5.69404E+02	 6.92400E+02
 5.72535E+02	 6.95500E+02
 5.75665E+02	 6.94300E+02
 5.78794E+02	 6.93600E+02
 5.81921E+02	 6.93500E+02
 5.85047E+02	 6.92300E+02
 5.88172E+02	 6.92800E+02
 5.91295E+02	 6.93600E+02
 5.94417E+02	 6.94300E+02
 5.97537E+02	 6.94900E+02
 6.00656E+02	 6.92300E+02
 6.03774E+02	 6.95500E+02
 6.06890E+02	 6.93400E+02
 6.10004E+02	 6.92200E+02
 6.13118E+02	 6.91900E+02
 6.16230E+02	 6.93900E+02
 6.19341E+02	 6.92500E+02
 6.22450E+02	 6.91700E+02
 6.25558E+02	 6.91900E+02
 6.28664E+02	 6.93700E+02
 6.31769E+02	 6.93300E+02
 6.34873E+02	 6.93800E+02
 6.37975E+02	 6.92900E+02
 6.41076E+02	 6.92300E+02
 6.44176E+02	 6.92700E+02
 6.47274E+02	 6.92400E+02
 6.50371E+02	 6.91400E+02
 6.53466E+02	 6.94000E+02
 6.56561E+02	 6.91600E+02
 6.59653E+02	 6.93700E+02
 6.62745E+02	 6.96100E+02
 6.65835E+02	 6.95200E+02
 6.68923E+02	 6.92700E+02
 6.72010E+02	 6.92100E+02
 6.75096E+02	 6.90500E+02
 6.78181E+02	 6.92100E+02
 6.81264E+02	 6.91600E+02
 6.84346E+02	 6.92600E+02
 6.87426E+02	 6.92500E+02
 6.90505E+02	 6.92500E+02
 6.93583E+02	 6.91900E+02
 6.96659E+02	 6.94100E+02
 6.99734E+02	 6.92900E+02
 7.02807E+02	 6.91100E+02
 7.05880E+02	 6.92700E+02
 7.08950E+02	 6.91900E+02
 7.12020E+02	 6.92200E+02
 7.15088E+02	 6.92900E+02
 7.18155E+02	 6.94200E+02
 7.21220E+02	 6.93800E+02
 7.24284E+02	 6.91900E+02
 7.27347E+02	 6.93400E+02
 7.30408E+02	 6.92800E+02
 7.33468E+02	 6.92500E+02
 7.36527E+02	 6.92300E+02
 7.39584E+02	 6.93300E+02
 7.42640E+02	 6.93400E+02
 7.45695E+02	 6.94600E+02
 7.48748E+02	 6.90800E+02
 7.51800E+02	 6.92000E+02
 7.54850E+02	 6.92200E+02
 7.57900E+02	 6.90900E+02
 7.60947E+02	 6.91900E+02
 7.63994E+02	 6.91300E+02
 7.67039E+02	 6.89500E+02
 7.70083E+02	 6.90600E+02
 7.73125E+02	 6.90200E+02
 7.76166E+02	 6.89000E+02
 7.79206E+02	 6.89000E+02
 7.82245E+02	 6.91400E+02
 7.85282E+02	 6.89600E+02
 7.88317E+02	 6.88200E+02
 7.91352E+02	 6.86500E+02
 7.94385E+02	 6.86900E+02
 7.97417E+02	 6.88300E+02
 8.00447E+02	 6.88600E+02
 8.03476E+02	 6.88400E+02
 8.06504E+02	 6.87200E+02
 8.09530E+02	 6.88000E+02
 8.12555E+02	 6.88100E+02
 8.15579E+02	 6.88200E+02
 8.18602E+02	 6.88500E+02
 8.21623E+02	 6.88200E+02
 8.24642E+02	 6.87500E+02
 8.27661E+02	 6.88700E+02
 8.30678E+02	 6.88100E+02
 8.33694E+02	 6.86800E+02
 8.36708E+02	 6.86800E+02
 8.39721E+02	 6.87100E+02
 8.42733E+02	 6.86500E+02
 8.45743E+02	 6.86700E+02
 8.48753E+02	 6.87600E+02
 8.51760E+02	 6.86500E+02
 8.54767E+02	 6.89500E+02
 8.57772E+02	 6.86000E+02
 8.60776E+02	 6.85500E+02
 8.63778E+02	 6.86300E+02
 8.66780E+02	 6.87700E+02
 8.69779E+02	 6.87100E+02
 8.72778E+02	 6.84900E+02
 8.75775E+02	 6.85900E+02
 8.78771E+02	 6.87500E+02
 8.81766E+02	 6.86900E+02
 8.84759E+02	 6.86800E+02
 8.87751E+02	 6.87400E+02
 8.90742E+02	 6.86700E+02
 8.93731E+02	 6.85500E+02
 8.96719E+02	 6.85400E+02
 8.99706E+02	 6.85100E+02
 9.02692E+02	 6.85600E+02
 9.05676E+02	 6.85300E+02
 9.08659E+02	 6.85800E+02
 9.11640E+02	 6.86800E+02
 9.14620E+02	 6.86400E+02
 9.17599E+02	 6.84200E+02
 9.20577E+02	 6.86800E+02
 9.23553E+02	 6.85200E+02
 9.26528E+02	 6.87500E+02
 9.29502E+02	 6.85600E+02
 9.32474E+02	 6.86200E+02
 9.35445E+02	 6.86300E+02
 9.38415E+02	 6.85900E+02
 9.41384E+02	 6.85600E+02
 9.44351E+02	 6.87300E+02
 9.47317E+02	 6.83900E+02
 9.50281E+02	 6.84600E+02
 9.53245E+02	 6.86500E+02
 9.56207E+02	 6.86200E+02
 9.59167E+02	 6.85000E+02
 9.62127E+02	 6.84400E+02
 9.65085E+02	 6.84900E+02
 9.68042E+02	 6.85600E+02
 9.70997E+02	 6.85700E+02
 9.73952E+02	 6.85400E+02
 9.76905E+02	 6.85400E+02
 9.79856E+02	 6.84200E+02
 9.82807E+02	 6.84600E+02
 9.85756E+02	 6.85500E+02
 9.88704E+02	 6.86100E+02
 9.91650E+02	 6.86900E+02
 9.94596E+02	 6.83700E+02
 9.97539E+02	 6.84800E+02
 1.00048E+03	 6.84500E+02
 1.00342E+03	 6.86300E+02
 1.00636E+03	 6.83700E+02
 1.00930E+03	 6.84900E+02
 1.01224E+03	 6.85900E+02
 1.01518E+03	 6.85200E+02
 1.01811E+03	 6.84300E+02
 1.02105E+03	 6.85400E+02
 1.02398E+03	 6.85000E+02
 1.02691E+03	 6.85100E+02
 1.02984E+03	 6.84800E+02
 1.03277E+03	 6.85100E+02
 1.03569E+03	 6.83800E+02
 1.03862E+03	 6.84500E+02
 1.04155E+03	 6.84700E+02
 1.04447E+03	 6.83300E+02
 1.04739E+03	 6.84400E+02
 1.05031E+03	 6.85800E+02
 1.05323E+03	 6.84300E+02
 1.05615E+03	 6.85500E+02
 1.05907E+03	 6.84500E+02
 1.06198E+03	 6.83600E+02
 1.06490E+03	 6.84200E+02
 1.06781E+03	 6.84200E+02
 1.07072E+03	 6.83600E+02
 1.07363E+03	 6.84100E+02
 1.07654E+03	 6.84100E+02
 1.07945E+03	 6.84800E+02
 1.08236E+03	 6.84700E+02
 1.08527E+03	 6.83700E+02
 1.08817E+03	 6.84000E+02
 1.09107E+03	 6.84800E+02
 1.09397E+03	 6.83200E+02
 1.09688E+03	 6.83900E+02
 1.09978E+03	 6.83500E+02
 1.10267E+03	 6.84800E+02
 1.10557E+03	 6.83800E+02
 1.10847E+03	 6.84800E+02
 1.11136E+03	 6.82500E+02
 1.11425E+03	 6.84200E+02
 1.11715E+03	 6.84300E+02
 1.12004E+03	 6.83800E+02
 1.12293E+03	 6.84200E+02
 1.12581E+03	 6.84800E+02
 1.12870E+03	 6.84300E+02
 1.13159E+03	 6.83200E+02
 1.13447E+03	 6.84600E+02
 1.13735E+03	 6.85500E+02
 1.14024E+03	 6.82300E+02
 1.14312E+03	 6.83500E+02
 1.14600E+03	 6.84300E+02
 1.14887E+03	 6.82000E+02
 1.15175E+03	 6.82800E+02
 1.15463E+03	 6.84500E+02
 1.15750E+03	 6.82200E+02
 1.16038E+03	 6.83800E+02
 1.16325E+03	 6.82800E+02
 1.16612E+03	 6.84200E+02
 1.16899E+03	 6.84200E+02
 1.17186E+03	 6.84900E+02
 1.17472E+03	 6.82700E+02
 1.17759E+03	 6.83400E+02
 1.18045E+03	 6.83700E+02
 1.18332E+03	 6.82200E+02
 1.18618E+03	 6.82800E+02
 1.18904E+03	 6.83900E+02
 1.19190E+03	 6.83400E+02
 1.19476E+03	 6.83200E+02
 1.19761E+03	 6.83700E+02
 1.20047E+03	 6.83900E+02
 1.20333E+03	 6.83000E+02
 1.20618E+03	 6.83000E+02
 1.20903E+03	 6.82200E+02
 1.21188E+03	 6.83500E+02
 1.21473E+03	 6.84000E+02
 1.21758E+03	 6.84700E+02
 1.22043E+03	 6.83600E+02
 1.22327E+03	 6.82700E+02
 1.22612E+03	 6.82400E+02
 1.22896E+03	 6.83000E+02
 1.23180E+03	 6.83000E+02
 1.23465E+03	 6.84000E+02
 1.23749E+03	 6.82100E+02
 1.24032E+03	 6.84200E+02
 1.24316E+03	 6.81100E+02
 1.24600E+03	 6.82900E+02
 1.24883E+03	 6.84100E+02
 1.25167E+03	 6.82400E+02
 1.25450E+03	 6.83500E+02
 1.25733E+03	 6.82400E+02
 1.26016E+03	 6.83400E+02
 1.26299E+03	 6.84700E+02
 1.26582E+03	 6.82300E+02
 1.26865E+03	 6.84600E+02
 1.27147E+03	 6.81700E+02
 1.27429E+03	 6.83500E+02
 1.27712E+03	 6.81800E+02
 1.27994E+03	 6.82000E+02
 1.28276E+03	 6.83000E+02
 1.28558E+03	 6.82500E+02
 1.28840E+03	 6.83000E+02
 1.29121E+03	 6.82200E+02
 1.29403E+03	 6.82000E+02
 1.29684E+03	 6.82500E+02
 1.29966E+03	 6.81400E+02
 1.30247E+03	 6.82200E+02
 1.30528E+03	 6.82700E+02
 1.30809E+03	 6.83700E+02
 1.31090E+03	 6.83500E+02
 1.31371E+03	 6.83500E+02
 1.31651E+03	 6.82900E+02
 1.31932E+03	 6.83000E+02
 1.32212E+03	 6.81900E+02
 1.32492E+03	 6.82400E+02
 1.32772E+03	 6.82300E+02
 1.33052E+03	 6.81400E+02
 1.33332E+03	 6.83200E+02
 1.33612E+03	 6.82500E+02
 1.33892E+03	 6.81700E+02
 1.34171E+03	 6.82800E+02
 1.34451E+03	 6.84000E+02
 1.34730E+03	 6.82700E+02
 1.35009E+03	 6.82200E+02
 1.35288E+03	 6.81000E+02
 1.35567E+03	 6.82600E+02
 1.35846E+03	 6.81500E+02
 1.36124E+03	 6.82000E+02
 1.36403E+03	 6.82200E+02
 1.36682E+03	 6.81300E+02
 1.36960E+03	 6.82700E+02
 1.37238E+03	 6.84200E+02
 1.37516E+03	 6.83100E+02
 1.37794E+03	 6.82900E+02
 1.38072E+03	 6.83200E+02
 1.38350E+03	 6.81600E+02
 1.38627E+03	 6.81900E+02
 1.38905E+03	 6.82800E+02
 1.39182E+03	 6.83000E+02
 1.39459E+03	 6.82700E+02
 1.39737E+03	 6.84200E+02
 1.40014E+03	 6.82600E+02
 1.40291E+03	 6.84000E+02
 1.40567E+03	 6.83300E+02
 1.40844E+03	 6.83600E+02
 1.41121E+03	 6.81700E+02
 1.41397E+03	 6.82300E+02
 1.41673E+03	 6.80800E+02
 1.41950E+03	 6.82000E+02
 1.42226E+03	 6.82300E+02
 1.42502E+03	 6.84100E+02
 1.42777E+03	 6.80600E+02
 1.43053E+03	 6.82300E+02
 1.43329E+03	 6.83500E+02
 1.43604E+03	 6.83800E+02
 1.43880E+03	 6.82300E+02
 1.44155E+03	 6.83600E+02
 1.44430E+03	 6.83200E+02
 1.44705E+03	 6.81700E+02
 1.44980E+03	 6.82800E+02
 1.45255E+03	 6.84100E+02
 1.45529E+03	 6.82400E+02
 1.45804E+03	 6.83700E+02
 1.46078E+03	 6.82500E+02
 1.46353E+03	 6.81600E+02
 1.46627E+03	 6.83100E+02
 1.46901E+03	 6.81900E+02
 1.47175E+03	 6.80900E+02
 1.47449E+03	 6.80100E+02
 1.47723E+03	 6.82400E+02
 1.47996E+03	 6.82300E+02
 1.48270E+03	 6.81700E+02
 1.48543E+03	 6.83500E+02
 1.48816E+03	 6.81100E+02
 1.49090E+03	 6.82300E+02
 1.49363E+03	 6.81300E+02
 1.49636E+03	 6.83000E+02
 1.49908E+03	 6.83300E+02
 1.50181E+03	 6.82100E+02
 1.50454E+03	 6.83300E+02
 1.50726E+03	 6.81700E+02
 1.50998E+03	 6.81000E+02
 1.51271E+03	 6.80900E+02
 1.51543E+03	 6.82800E+02
 1.51815E+03	 6.82800E+02
 1.52087E+03	 6.82500E+02
 1.52359E+03	 6.82400E+02
 1.52630E+03	 6.81800E+02
 1.52902E+03	 6.81500E+02
 1.53173E+03	 6.82100E+02
 1.53444E+03	 6.82700E+02
 1.53716E+03	 6.82500E+02
 1.53987E+03	 6.82900E+02
 1.54258E+03	 6.81100E+02
 1.54529E+03	 6.82600E+02
 1.54799E+03	 6.81000E+02
 1.55070E+03	 6.82600E+02
 1.55340E+03	 6.81400E+02
 1.55611E+03	 6.81500E+02
 1.55881E+03	 6.82700E+02
 1.56151E+03	 6.83000E+02
 1.56421E+03	 6.81600E+02
 1.56691E+03	 6.82100E+02
 1.56961E+03	 6.81300E+02
 1.57231E+03	 6.81100E+02
 1.57500E+03	 6.82200E+02
 1.57770E+03	 6.79400E+02
 1.58039E+03	 6.81700E+02
 1.58309E+03	 6.82200E+02
 1.58578E+03	 6.80700E+02
 1.58847E+03	 6.82200E+02
 1.59116E+03	 6.81800E+02
 1.59384E+03	 6.82600E+02
 1.59653E+03	 6.81500E+02
 1.59922E+03	 6.82200E+02
 1.60190E+03	 6.81500E+02
 1.60459E+03	 6.82800E+02
 1.60727E+03	 6.82700E+02
 1.60995E+03	 6.82500E+02
 1.61263E+03	 6.81500E+02
 1.61531E+03	 6.82300E+02
 1.61799E+03	 6.79800E+02
 1.62066E+03	 6.81500E+02
 1.62334E+03	 6.81200E+02
 1.62601E+03	 6.81200E+02
 1.62869E+03	 6.82900E+02
 1.63136E+03	 6.82200E+02
 1.63403E+03	 6.80300E+02
 1.63670E+03	 6.81300E+02
 1.63937E+03	 6.80200E+02
 1.64204E+03	 6.81400E+02
 1.64470E+03	 6.80700E+02
 1.64737E+03	 6.79500E+02
 1.65003E+03	 6.81700E+02
 1.65269E+03	 6.80300E+02
 1.65536E+03	 6.82100E+02
 1.65802E+03	 6.81800E+02
 1.66068E+03	 6.81700E+02
 1.66334E+03	 6.80400E+02
 1.66599E+03	 6.81800E+02
 1.66865E+03	 6.82500E+02
 1.67131E+03	 6.81800E+02
 1.67396E+03	 6.82900E+02
 1.67661E+03	 6.81200E+02
 1.67927E+03	 6.82200E+02
 1.68192E+03	 6.80600E+02
 1.68457E+03	 6.81800E+02
 1.68722E+03	 6.80900E+02
 1.68986E+03	 6.82400E+02
 1.69251E+03	 6.81200E+02
 1.69515E+03	 6.82000E+02
 1.69780E+03	 6.81300E+02
 1.70044E+03	 6.82100E+02
 1.70308E+03	 6.81600E+02
 1.70572E+03	 6.81000E+02
 1.70836E+03	 6.81800E+02
 1.71100E+03	 6.82100E+02
 1.71364E+03	 6.81900E+02
 1.71628E+03	 6.82500E+02
 1.71891E+03	 6.83100E+02
 1.72155E+03	 6.82100E+02
 1.72418E+03	 6.81800E+02
 1.72681E+03	 6.81200E+02
 1.72944E+03	 6.80800E+02
 1.73207E+03	 6.83500E+02
 1.73470E+03	 6.81200E+02
 1.73733E+03	 6.81300E+02
 1.73996E+03	 6.81000E+02
 1.74258E+03	 6.80700E+02
 1.74521E+03	 6.80400E+02
 1.74783E+03	 6.80700E+02
 1.75045E+03	 6.82100E+02
 1.75307E+03	 6.81200E+02
 1.75569E+03	 6.81000E+02
 1.75831E+03	 6.81900E+02
 1.76093E+03	 6.82200E+02
 1.76355E+03	 6.80500E+02
 1.76616E+03	 6.81100E+02
 1.76878E+03	 6.81100E+02
 1.77139E+03	 6.81700E+02
 1.77400E+03	 6.81300E+02
 1.77661E+03	 6.80500E+02
 1.77922E+03	 6.82000E+02
 1.78183E+03	 6.81300E+02
 1.78444E+03	 6.83400E+02
 1.78705E+03	 6.81200E+02
 1.78965E+03	 6.82500E+02
 1.79226E+03	 6.81400E+02
 1.79486E+03	 6.81800E+02
 1.79746E+03	 6.81300E+02
 1.80007E+03	 6.82500E+02
 1.80267E+03	 6.82300E+02
 1.80527E+03	 6.81700E+02
 1.80786E+03	 6.82500E+02
 1.81046E+03	 6.81100E+02
 1.81306E+03	 6.80800E+02
 1.81565E+03	 6.80900E+02
 1.81825E+03	 6.81800E+02
 1.82084E+03	 6.82300E+02
 1.82343E+03	 6.80700E+02
 1.82602E+03	 6.80800E+02
 1.82861E+03	 6.80900E+02
 1.83120E+03	 6.82400E+02
 1.83379E+03	 6.81200E+02
 1.83637E+03	 6.81900E+02
 1.83896E+03	 6.80900E+02
 1.84154E+03	 6.82700E+02
 1.84413E+03	 6.79600E+02
 1.84671E+03	 6.81100E+02
 1.84929E+03	 6.82000E+02
 1.85187E+03	 6.81000E+02
 1.85445E+03	 6.80600E+02
 1.85702E+03	 6.80000E+02
 1.85960E+03	 6.81200E+02
 1.86218E+03	 6.82000E+02
 1.86475E+03	 6.81500E+02
 1.86732E+03	 6.80800E+02
 1.86990E+03	 6.82200E+02
 1.87247E+03	 6.82000E+02
 1.87504E+03	 6.80300E+02
 1.87761E+03	 6.82700E+02
 1.88018E+03	 6.82400E+02
 1.88274E+03	 6.81500E+02
 1.88531E+03	 6.81300E+02
 1.88787E+03	 6.81700E+02
 1.89044E+03	 6.80600E+02
 1.89300E+03	 6.80700E+02
 1.89556E+03	 6.82200E+02
 1.89812E+03	 6.81200E+02
 1.90068E+03	 6.81500E+02
 1.90324E+03	 6.79900E+02
 1.90580E+03	 6.82400E+02
 1.90835E+03	 6.80400E+02
 1.91091E+03	 6.80100E+02
 1.91346E+03	 6.81000E+02
 1.91602E+03	 6.81300E+02
 1.91857E+03	 6.81300E+02
 1.92112E+03	 6.80800E+02
 1.92367E+03	 6.81500E+02
 1.92622E+03	 6.80900E+02
 1.92877E+03	 6.81600E+02
 1.93131E+03	 6.80900E+02
 1.93386E+03	 6.80300E+02
 1.93641E+03	 6.82700E+02
 1.93895E+03	 6.80300E+02
 1.94149E+03	 6.80200E+02
 1.94403E+03	 6.80700E+02
 1.94657E+03	 6.79400E+02
 1.94911E+03	 6.82700E+02
 1.95165E+03	 6.80700E+02
 1.95419E+03	 6.80900E+02
 1.95673E+03	 6.81300E+02
 1.95926E+03	 6.82800E+02
 1.96179E+03	 6.82300E+02
 1.96433E+03	 6.80500E+02
 1.96686E+03	 6.82000E+02
 1.96939E+03	 6.82300E+02
 1.97192E+03	 6.81300E+02
 1.97445E+03	 6.81400E+02
 1.97698E+03	 6.81800E+02
 1.97951E+03	 6.81800E+02
 1.98203E+03	 6.81500E+02
 1.98456E+03	 6.81100E+02
 1.98708E+03	 6.80900E+02
 1.98960E+03	 6.81700E+02
 1.99212E+03	 6.80300E+02
 1.99465E+03	 6.80100E+02
 1.99716E+03	 6.81800E+02
 1.99968E+03	 6.82200E+02
 2.00220E+03	 6.80300E+02
 2.00472E+03	 6.81800E+02
 2.00723E+03	 6.80900E+02
 2.00975E+03	 6.82000E+02
 2.01226E+03	 6.81200E+02
 2.01477E+03	 6.81700E+02
 2.01728E+03	 6.80200E+02
 2.01980E+03	 6.81100E+02
 2.02230E+03	 6.81800E+02
 2.02481E+03	 6.80000E+02
 2.02732E+03	 6.79600E+02
 2.02983E+03	 6.80900E+02
 2.03233E+03	 6.81200E+02
 2.03484E+03	 6.81700E+02
 2.03734E+03	 6.80800E+02
 2.03984E+03	 6.82000E+02
 2.04234E+03	 6.81500E+02
 2.04484E+03	 6.80400E+02
 2.04734E+03	 6.80100E+02
 2.04984E+03	 6.84500E+02
 2.05234E+03	 6.80400E+02
 2.05483E+03	 6.81000E+02
 2.05733E+03	 6.82900E+02
 2.05982E+03	 6.82200E+02
 2.06231E+03	 6.81400E+02
 2.06480E+03	 6.80900E+02
 2.06730E+03	 6.81900E+02
 2.06978E+03	 6.81400E+02
 2.07227E+03	 6.81700E+02
 2.07476E+03	 6.81400E+02
 2.07725E+03	 6.81100E+02
 2.07973E+03	 6.80900E+02
 2.08222E+03	 6.80300E+02
 2.08470E+03	 6.81900E+02
 2.08718E+03	 6.81200E+02
 2.08967E+03	 6.80900E+02
 2.09215E+03	 6.80800E+02
 2.09463E+03	 6.80800E+02
 2.09710E+03	 6.81800E+02
 2.09958E+03	 6.81600E+02
 2.10206E+03	 6.80500E+02
 2.10453E+03	 6.81700E+02
 2.10701E+03	 6.81800E+02
 2.10948E+03	 6.80700E+02
 2.11195E+03	 6.80900E+02
 2.11443E+03	 6.82700E+02
 2.11690E+03	 6.82500E+02
 2.11937E+03	 6.81300E+02
 2.12183E+03	 6.80800E+02
 2.12430E+03	 6.82000E+02
 2.12677E+03	 6.80900E+02
 2.12923E+03	 6.79800E+02
 2.13170E+03	 6.81400E+02
 2.13416E+03	 6.79500E+02
 2.13662E+03	 6.81000E+02
 2.13908E+03	 6.82800E+02
 2.14154E+03	 6.79800E+02
 2.14400E+03	 6.82300E+02
 2.14646E+03	 6.82600E+02
 2.14892E+03	 6.80200E+02
 2.15138E+03	 6.81800E+02
 2.15383E+03	 6.81300E+02
 2.15629E+03	 6.80200E+02
 2.15874E+03	 6.82300E+02
 2.16119E+03	 6.81400E+02
 2.16364E+03	 6.80100E+02
 2.16609E+03	 6.80600E+02
 2.16854E+03	 6.80900E+02
 2.17099E+03	 6.81200E+02
 2.17344E+03	 6.82000E+02
 2.17588E+03	 6.80800E+02
 2.17833E+03	 6.80800E+02
 2.18077E+03	 6.80300E+02
 2.18322E+03	 6.81200E+02
 2.18566E+03	 6.80900E+02
 2.18810E+03	 6.82400E+02
 2.19054E+03	 6.79200E+02
 2.19298E+03	 6.83200E+02
 2.19542E+03	 6.80400E+02
 2.19785E+03	 6.80500E+02
 2.20029E+03	 6.82100E+02
 2.20273E+03	 6.81800E+02
 2.20516E+03	 6.81100E+02
 2.20759E+03	 6.80600E+02
 2.21003E+03	 6.79900E+02
 2.21246E+03	 6.80400E+02
 2.21489E+03	 6.81300E+02
 2.21732E+03	 6.79800E+02
 2.21975E+03	 6.82600E+02
 2.22217E+03	 6.79700E+02
 2.22460E+03	 6.80000E+02
 2.22702E+03	 6.82300E+02
 2.22945E+03	 6.80900E+02
 2.23187E+03	 6.82500E+02
 2.23429E+03	 6.81200E+02
 2.23672E+03	 6.81200E+02
 2.23914E+03	 6.80200E+02
 2.24156E+03	 6.83600E+02
 2.24397E+03	 6.82800E+02
 2.24639E+03	 6.80100E+02
 2.24881E+03	 6.80800E+02
 2.25122E+03	 6.83500E+02
 2.25364E+03	 6.79700E+02
 2.25605E+03	 6.79900E+02
 2.25846E+03	 6.81600E+02
 2.26088E+03	 6.81300E+02
 2.26329E+03	 6.79800E+02
 2.26570E+03	 6.81800E+02
 2.26811E+03	 6.81300E+02
 2.27051E+03	 6.81100E+02
 2.27292E+03	 6.79800E+02
 2.27533E+03	 6.81700E+02
 2.27773E+03	 6.81300E+02
 2.28013E+03	 6.80100E+02
 2.28254E+03	 6.80500E+02
 2.28494E+03	 6.80400E+02
 2.28734E+03	 6.80100E+02
 2.28974E+03	 6.81000E+02
 2.29214E+03	 6.80700E+02
 2.29454E+03	 6.80800E+02
 2.29693E+03	 6.81700E+02
 2.29933E+03	 6.81100E+02
 2.30172E+03	 6.81600E+02
 2.30412E+03	 6.81300E+02
 2.30651E+03	 6.82600E+02
 2.30890E+03	 6.80400E+02
 2.31129E+03	 6.78700E+02
 2.31368E+03	 6.81400E+02
 2.31607E+03	 6.80500E+02
 2.31846E+03	 6.82900E+02
 2.32085E+03	 6.81200E+02
 2.32324E+03	 6.81200E+02
 2.32562E+03	 6.82800E+02
 2.32801E+03	 6.80700E+02
 2.33039E+03	 6.80800E+02
 2.33277E+03	 6.80900E+02
 2.33515E+03	 6.80600E+02
 2.33753E+03	 6.82000E+02
 2.33991E+03	 6.81800E+02
 2.34229E+03	 6.81300E+02
 2.34467E+03	 6.80700E+02
 2.34705E+03	 6.81400E+02
 2.34942E+03	 6.80700E+02
 2.35180E+03	 6.81400E+02
 2.35417E+03	 6.80900E+02
 2.35654E+03	 6.79100E+02
 2.35891E+03	 6.81700E+02
 2.36129E+03	 6.80800E+02
 2.36366E+03	 6.79400E+02
 2.36602E+03	 6.80600E+02
 2.36839E+03	 6.81200E+02
 2.37076E+03	 6.82200E+02
 2.37313E+03	 6.79900E+02
 2.37549E+03	 6.80000E+02
 2.37786E+03	 6.81100E+02
 2.38022E+03	 6.81600E+02
 2.38258E+03	 6.79100E+02
 2.38494E+03	 6.80900E+02
 2.38730E+03	 6.79900E+02
 2.38966E+03	 6.79800E+02
 2.39202E+03	 6.80600E+02
 2.39438E+03	 6.81400E+02
 2.39673E+03	 6.79700E+02
 2.39909E+03	 6.80800E+02
 2.40145E+03	 6.80900E+02
 2.40380E+03	 6.81600E+02
 2.40615E+03	 6.80100E+02
 2.40850E+03	 6.80800E+02
 2.41085E+03	 6.80300E+02
 2.41320E+03	 6.80300E+02
 2.41555E+03	 6.80200E+02
 2.41790E+03	 6.81500E+02
 2.42025E+03	 6.80400E+02
 2.42259E+03	 6.79000E+02
 2.42494E+03	 6.80700E+02
 2.42728E+03	 6.82300E+02
 2.42963E+03	 6.78400E+02
 2.43197E+03	 6.82100E+02
 2.43431E+03	 6.81200E+02
 2.43665E+03	 6.82100E+02
 2.43899E+03	 6.80300E+02
 2.44133E+03	 6.79800E+02
 2.44367E+03	 6.81200E+02
 2.44600E+03	 6.80000E+02
 2.44834E+03	 6.79200E+02
 2.45067E+03	 6.81100E+02
 2.45301E+03	 6.80400E+02
 2.45534E+03	 6.79800E+02
 2.45767E+03	 6.81700E+02
 2.46001E+03	 6.80800E+02
 2.46234E+03	 6.80300E+02
 2.46466E+03	 6.80600E+02
 2.46699E+03	 6.79900E+02
 2.46932E+03	 6.80100E+02
 2.47165E+03	 6.78900E+02
 2.47397E+03	 6.81600E+02
 2.47630E+03	 6.79800E+02
 2.47862E+03	 6.80700E+02
 2.48094E+03	 6.80400E+02
 2.48326E+03	 6.80900E+02
 2.48559E+03	 6.79600E+02
 2.48791E+03	 6.81000E+02
 2.49022E+03	 6.81200E+02
 2.49254E+03	 6.80900E+02
 2.49486E+03	 6.79800E+02
 2.49718E+03	 6.82400E+02
 2.49949E+03	 6.79700E+02
 2.50181E+03	 6.80600E+02
 2.50412E+03	 6.81000E+02
 2.50643E+03	 6.78800E+02
 2.50874E+03	 6.80200E+02
 2.51105E+03	 6.81400E+02
 2.51336E+03	 6.80900E+02
 2.51567E+03	 6.80000E+02
 2.51798E+03	 6.80700E+02
 2.52029E+03	 6.81200E+02
 2.52259E+03	 6.79300E+02
 2.52490E+03	 6.81000E+02
 2.52720E+03	 6.79700E+02
 2.52951E+03	 6.80700E+02
 2.53181E+03	 6.80000E+02
 2.53411E+03	 6.81800E+02
 2.53641E+03	 6.82100E+02
 2.53871E+03	 6.81600E+02
 2.54101E+03	 6.80400E+02
 2.54331E+03	 6.80100E+02
 2.54560E+03	 6.79300E+02
 2.54790E+03	 6.80300E+02
 2.55019E+03	 6.81300E+02
 2.55249E+03	 6.79900E+02
 2.55478E+03	 6.80100E+02
 2.55707E+03	 6.78700E+02
 2.55936E+03	 6.78700E+02
 2.56165E+03	 6.80100E+02
 2.56394E+03	 6.80800E+02
 2.56623E+03	 6.81200E+02
 2.56852E+03	 6.80600E+02
 2.57081E+03	 6.81200E+02
 2.57309E+03	 6.78600E+02
 2.57538E+03	 6.80700E+02
 2.57766E+03	 6.80000E+02
 2.57994E+03	 6.80400E+02
 2.58223E+03	 6.79600E+02
 2.58451E+03	 6.78800E+02
 2.58679E+03	 6.80200E+02
 2.58907E+03	 6.80500E+02
 2.59135E+03	 6.79400E+02
 2.59362E+03	 6.79200E+02
 2.59590E+03	 6.78400E+02
 2.59818E+03	 6.79700E+02
 2.60045E+03	 6.80100E+02
 2.60272E+03	 6.79300E+02
 2.60500E+03	 6.79300E+02
 2.60727E+03	 6.80000E+02
 2.60954E+03	 6.80700E+02
 2.61181E+03	 6.80700E+02
 2.61408E+03	 6.81300E+02
 2.61635E+03	 6.78900E+02
 2.61862E+03	 6.80500E+02
 2.62088E+03	 6.79900E+02
 2.62315E+03	 6.80600E+02
 2.62541E+03	 6.79800E+02
 2.62768E+03	 6.79900E+02
 2.62994E+03	 6.81500E+02
 2.63220E+03	 6.81100E+02
 2.63447E+03	 6.79800E+02
 2.63673E+03	 6.79900E+02
 2.63899E+03	 6.79400E+02
 2.64124E+03	 6.80600E+02
 2.64350E+03	 6.79600E+02
 2.64576E+03	 6.78200E+02
 2.64801E+03	 6.80400E+02
 2.65027E+03	 6.79400E+02
 2.65252E+03	 6.78700E+02
 2.65478E+03	 6.80100E+02
 2.65703E+03	 6.79400E+02
 2.65928E+03	 6.78900E+02
 2.66153E+03	 6.77800E+02
 2.66378E+03	 6.78900E+02
 2.66603E+03	 6.79700E+02
 2.66828E+03	 6.78100E+02
 2.67052E+03	 6.79100E+02
 2.67277E+03	 6.78900E+02
 2.67502E+03	 6.78500E+02
 2.67726E+03	 6.77600E+02
 2.67950E+03	 6.77400E+02
 2.68175E+03	 6.78300E+02
 2.68399E+03	 6.76400E+02
 2.68623E+03	 6.77800E+02
 2.68847E+03	 6.77900E+02
 2.69071E+03	 6.76600E+02
 2.69295E+03	 6.77500E+02
 2.69518E+03	 6.75500E+02
 2.69742E+03	 6.76000E+02
 2.69966E+03	 6.76900E+02
 2.70189E+03	 6.76800E+02
 2.70412E+03	 6.74800E+02
 2.70636E+03	 6.73800E+02
 2.70859E+03	 6.73500E+02
 2.71082E+03	 6.72500E+02
 2.71305E+03	 6.70200E+02
 2.71528E+03	 6.69100E+02
 2.71751E+03	 6.69200E+02
 2.71973E+03	 6.68800E+02
