-1.20553E+02	 6.78090E+02
-1.17108E+02	 6.76820E+02
-1.13664E+02	 6.76683E+02
-1.10223E+02	 6.75947E+02
-1.06783E+02	 6.77157E+02
-1.03344E+02	 6.76407E+02
-9.99072E+01	 6.76417E+02
-9.64718E+01	 6.75537E+02
-9.30381E+01	 6.76257E+02
-8.96059E+01	 6.75800E+02
-8.61753E+01	 6.75587E+02
-8.27463E+01	 6.75350E+02
-7.93189E+01	 6.75643E+02
-7.58931E+01	 6.75310E+02
-7.24688E+01	 6.75347E+02
-6.90462E+01	 6.75310E+02
-6.56251E+01	 6.75530E+02
-6.22056E+01	 6.76447E+02
-5.87876E+01	 6.75510E+02
-5.53712E+01	 6.74887E+02
-5.19565E+01	 6.75083E+02
-4.85432E+01	 6.74660E+02
-4.51316E+01	 6.75430E+02
-4.17215E+01	 6.74867E+02
-3.83130E+01	 6.75470E+02
-3.49061E+01	 6.74837E+02
-3.15007E+01	 6.74927E+02
-2.80969E+01	 6.74930E+02
-2.46947E+01	 6.75120E+02
-2.12940E+01	 6.75087E+02
-1.78949E+01	 6.75200E+02
-1.44974E+01	 6.75717E+02
-1.11014E+01	 6.85143E+02
-7.70701E+00	 7.28497E+02
-4.31416E+00	 7.53347E+02
-9.22869E-01	 7.03513E+02
 2.46687E+00	 6.77353E+02
 5.85504E+00	 6.75137E+02
 9.24166E+00	 6.74913E+02
 1.26267E+01	 6.74757E+02
 1.60102E+01	 6.75100E+02
 1.93922E+01	 6.74813E+02
 2.27726E+01	 6.75010E+02
 2.61514E+01	 6.74770E+02
 2.95288E+01	 6.75040E+02
 3.29045E+01	 6.74607E+02
 3.62787E+01	 6.75037E+02
 3.96514E+01	 6.74590E+02
 4.30225E+01	 6.75923E+02
 4.63920E+01	 6.76687E+02
 4.97601E+01	 6.80563E+02
 5.31265E+01	 6.84630E+02
 5.64915E+01	 6.85970E+02
 5.98548E+01	 6.85047E+02
 6.32167E+01	 6.86293E+02
 6.65770E+01	 6.87353E+02
 6.99358E+01	 6.89203E+02
 7.32930E+01	 6.92187E+02
 7.66487E+01	 6.94150E+02
 8.00029E+01	 6.95863E+02
 8.33555E+01	 7.00063E+02
 8.67066E+01	 7.05907E+02
 9.00561E+01	 7.05987E+02
 9.34042E+01	 7.02027E+02
 9.67507E+01	 7.01427E+02
 1.00096E+02	 7.03970E+02
 1.03439E+02	 7.11767E+02
 1.06781E+02	 7.29993E+02
 1.10121E+02	 7.68107E+02
 1.13460E+02	 8.33480E+02
 1.16798E+02	 8.69643E+02
 1.20133E+02	 8.29237E+02
 1.23468E+02	 7.79503E+02
 1.26800E+02	 7.47087E+02
 1.30132E+02	 7.30470E+02
 1.33461E+02	 7.44660E+02
 1.36790E+02	 7.57540E+02
 1.40116E+02	 7.28370E+02
 1.43441E+02	 7.05873E+02
 1.46765E+02	 6.99793E+02
 1.50087E+02	 6.96653E+02
 1.53408E+02	 6.93210E+02
 1.56727E+02	 6.91390E+02
 1.60044E+02	 6.90743E+02
 1.63360E+02	 6.90643E+02
 1.66675E+02	 6.89243E+02
 1.69988E+02	 6.88907E+02
 1.73300E+02	 6.87627E+02
 1.76610E+02	 6.87973E+02
 1.79918E+02	 6.86910E+02
 1.83225E+02	 6.85987E+02
 1.86531E+02	 6.84220E+02
 1.89835E+02	 6.83043E+02
 1.93137E+02	 6.81927E+02
 1.96438E+02	 6.82647E+02
 1.99738E+02	 6.81887E+02
 2.03036E+02	 6.81770E+02
 2.06332E+02	 6.81553E+02
 2.09627E+02	 6.81860E+02
 2.12921E+02	 6.82080E+02
 2.16213E+02	 6.82143E+02
 2.19503E+02	 6.81997E+02
 2.22792E+02	 6.81513E+02
 2.26080E+02	 6.80907E+02
 2.29366E+02	 6.80970E+02
 2.32650E+02	 6.80587E+02
 2.35933E+02	 6.80883E+02
 2.39215E+02	 6.80527E+02
 2.42495E+02	 6.81977E+02
 2.45774E+02	 6.81643E+02
 2.49051E+02	 6.82127E+02
 2.52326E+02	 6.83240E+02
 2.55600E+02	 6.84520E+02
 2.58873E+02	 6.85023E+02
 2.62144E+02	 6.85150E+02
 2.65414E+02	 6.84663E+02
 2.68682E+02	 6.83953E+02
 2.71949E+02	 6.83133E+02
 2.75214E+02	 6.82830E+02
 2.78478E+02	 6.81570E+02
 2.81740E+02	 6.80857E+02
 2.85001E+02	 6.80013E+02
 2.88260E+02	 6.80480E+02
 2.91518E+02	 6.79650E+02
 2.94774E+02	 6.79743E+02
 2.98029E+02	 6.79360E+02
 3.01283E+02	 6.79043E+02
 3.04535E+02	 6.78367E+02
 3.07785E+02	 6.79670E+02
 3.11034E+02	 6.79380E+02
 3.14282E+02	 6.78510E+02
 3.17528E+02	 6.78537E+02
 3.20772E+02	 6.78387E+02
 3.24015E+02	 6.77980E+02
 3.27257E+02	 6.77983E+02
 3.30497E+02	 6.78007E+02
 3.33736E+02	 6.78233E+02
 3.36973E+02	 6.77953E+02
 3.40209E+02	 6.77967E+02
 3.43443E+02	 6.77157E+02
 3.46676E+02	 6.77990E+02
 3.49908E+02	 6.77840E+02
 3.53138E+02	 6.77887E+02
 3.56366E+02	 6.77237E+02
 3.59593E+02	 6.77857E+02
 3.62819E+02	 6.77357E+02
 3.66043E+02	 6.77673E+02
 3.69266E+02	 6.77310E+02
 3.72487E+02	 6.77440E+02
 3.75707E+02	 6.76917E+02
 3.78925E+02	 6.78007E+02
 3.82142E+02	 6.77310E+02
 3.85357E+02	 6.77090E+02
 3.88571E+02	 6.77070E+02
 3.91784E+02	 6.77577E+02
 3.94995E+02	 6.77427E+02
 3.98205E+02	 6.77527E+02
 4.01413E+02	 6.77460E+02
 4.04620E+02	 6.77407E+02
 4.07825E+02	 6.77450E+02
 4.11029E+02	 6.77200E+02
 4.14231E+02	 6.76627E+02
 4.17432E+02	 6.77063E+02
 4.20632E+02	 6.75930E+02
 4.23830E+02	 6.77027E+02
 4.27027E+02	 6.76613E+02
 4.30222E+02	 6.76730E+02
 4.33416E+02	 6.76463E+02
 4.36608E+02	 6.76983E+02
 4.39799E+02	 6.76590E+02
 4.42989E+02	 6.76767E+02
 4.46177E+02	 6.76773E+02
 4.49363E+02	 6.76597E+02
 4.52549E+02	 6.76497E+02
 4.55732E+02	 6.76480E+02
 4.58915E+02	 6.76713E+02
 4.62096E+02	 6.76973E+02
 4.65275E+02	 6.76577E+02
 4.68453E+02	 6.76673E+02
 4.71630E+02	 6.76323E+02
 4.74805E+02	 6.76703E+02
 4.77979E+02	 6.76380E+02
 4.81151E+02	 6.76790E+02
 4.84322E+02	 6.76300E+02
 4.87492E+02	 6.76350E+02
 4.90660E+02	 6.76003E+02
 4.93827E+02	 6.76813E+02
 4.96992E+02	 6.76000E+02
 5.00156E+02	 6.76087E+02
 5.03318E+02	 6.76213E+02
 5.06479E+02	 6.76383E+02
 5.09639E+02	 6.76390E+02
 5.12797E+02	 6.76063E+02
 5.15954E+02	 6.76120E+02
 5.19109E+02	 6.76310E+02
 5.22263E+02	 6.76260E+02
 5.25416E+02	 6.76113E+02
 5.28567E+02	 6.76080E+02
 5.31716E+02	 6.76213E+02
 5.34865E+02	 6.75997E+02
 5.38012E+02	 6.76177E+02
 5.41157E+02	 6.76220E+02
 5.44301E+02	 6.76123E+02
 5.47444E+02	 6.76227E+02
 5.50585E+02	 6.76207E+02
 5.53725E+02	 6.75957E+02
 5.56864E+02	 6.76720E+02
 5.60001E+02	 6.76020E+02
 5.63137E+02	 6.76293E+02
 5.66271E+02	 6.75803E+02
 5.69404E+02	 6.76463E+02
 5.72535E+02	 6.75897E+02
 5.75665E+02	 6.76420E+02
 5.78794E+02	 6.76350E+02
 5.81921E+02	 6.76037E+02
 5.85047E+02	 6.76060E+02
 5.88172E+02	 6.76447E+02
 5.91295E+02	 6.75927E+02
 5.94417E+02	 6.76130E+02
 5.97537E+02	 6.76263E+02
 6.00656E+02	 6.76720E+02
 6.03774E+02	 6.76387E+02
 6.06890E+02	 6.76470E+02
 6.10004E+02	 6.75850E+02
 6.13118E+02	 6.76643E+02
 6.16230E+02	 6.76007E+02
 6.19341E+02	 6.76213E+02
 6.22450E+02	 6.75827E+02
 6.25558E+02	 6.76287E+02
 6.28664E+02	 6.76123E+02
 6.31769E+02	 6.76533E+02
 6.34873E+02	 6.75997E+02
 6.37975E+02	 6.76510E+02
 6.41076E+02	 6.75653E+02
 6.44176E+02	 6.76933E+02
 6.47274E+02	 6.76143E+02
 6.50371E+02	 6.76483E+02
 6.53466E+02	 6.76383E+02
 6.56561E+02	 6.76820E+02
 6.59653E+02	 6.75763E+02
 6.62745E+02	 6.76767E+02
 6.65835E+02	 6.75933E+02
 6.68923E+02	 6.76123E+02
 6.72010E+02	 6.76453E+02
 6.75096E+02	 6.76510E+02
 6.78181E+02	 6.76000E+02
 6.81264E+02	 6.75963E+02
 6.84346E+02	 6.76103E+02
 6.87426E+02	 6.76657E+02
 6.90505E+02	 6.76380E+02
 6.93583E+02	 6.76397E+02
 6.96659E+02	 6.76120E+02
 6.99734E+02	 6.76620E+02
 7.02807E+02	 6.75967E+02
 7.05880E+02	 6.76527E+02
 7.08950E+02	 6.76300E+02
 7.12020E+02	 6.76223E+02
 7.15088E+02	 6.75817E+02
 7.18155E+02	 6.76757E+02
 7.21220E+02	 6.76080E+02
 7.24284E+02	 6.76413E+02
 7.27347E+02	 6.76187E+02
 7.30408E+02	 6.76467E+02
 7.33468E+02	 6.75950E+02
 7.36527E+02	 6.75967E+02
 7.39584E+02	 6.76373E+02
 7.42640E+02	 6.76340E+02
 7.45695E+02	 6.76013E+02
 7.48748E+02	 6.76580E+02
 7.51800E+02	 6.75957E+02
 7.54850E+02	 6.76380E+02
 7.57900E+02	 6.76120E+02
 7.60947E+02	 6.76437E+02
 7.63994E+02	 6.75780E+02
 7.67039E+02	 6.76050E+02
 7.70083E+02	 6.76057E+02
 7.73125E+02	 6.75767E+02
 7.76166E+02	 6.75817E+02
 7.79206E+02	 6.76217E+02
 7.82245E+02	 6.75843E+02
 7.85282E+02	 6.75840E+02
 7.88317E+02	 6.75733E+02
 7.91352E+02	 6.76047E+02
 7.94385E+02	 6.75823E+02
 7.97417E+02	 6.75773E+02
 8.00447E+02	 6.75807E+02
 8.03476E+02	 6.75833E+02
 8.06504E+02	 6.75680E+02
 8.09530E+02	 6.75710E+02
 8.12555E+02	 6.75433E+02
 8.15579E+02	 6.76227E+02
 8.18602E+02	 6.75570E+02
 8.21623E+02	 6.76057E+02
 8.24642E+02	 6.75513E+02
 8.27661E+02	 6.75963E+02
 8.30678E+02	 6.75727E+02
 8.33694E+02	 6.75667E+02
 8.36708E+02	 6.75647E+02
 8.39721E+02	 6.75833E+02
 8.42733E+02	 6.75583E+02
 8.45743E+02	 6.75633E+02
 8.48753E+02	 6.75677E+02
 8.51760E+02	 6.76047E+02
 8.54767E+02	 6.75357E+02
 8.57772E+02	 6.75697E+02
 8.60776E+02	 6.75337E+02
 8.63778E+02	 6.75580E+02
 8.66780E+02	 6.75513E+02
 8.69779E+02	 6.75890E+02
 8.72778E+02	 6.75273E+02
 8.75775E+02	 6.75903E+02
 8.78771E+02	 6.75660E+02
 8.81766E+02	 6.75900E+02
 8.84759E+02	 6.76173E+02
 8.87751E+02	 6.76023E+02
 8.90742E+02	 6.75527E+02
 8.93731E+02	 6.75780E+02
 8.96719E+02	 6.75420E+02
 8.99706E+02	 6.75437E+02
 9.02692E+02	 6.75380E+02
 9.05676E+02	 6.75613E+02
 9.08659E+02	 6.75400E+02
 9.11640E+02	 6.75780E+02
 9.14620E+02	 6.75367E+02
 9.17599E+02	 6.75897E+02
 9.20577E+02	 6.75317E+02
 9.23553E+02	 6.75913E+02
 9.26528E+02	 6.75563E+02
 9.29502E+02	 6.75737E+02
 9.32474E+02	 6.75557E+02
 9.35445E+02	 6.75477E+02
 9.38415E+02	 6.75360E+02
 9.41384E+02	 6.76097E+02
 9.44351E+02	 6.75343E+02
 9.47317E+02	 6.76087E+02
 9.50281E+02	 6.75533E+02
 9.53245E+02	 6.75600E+02
 9.56207E+02	 6.75723E+02
 9.59167E+02	 6.75637E+02
 9.62127E+02	 6.75407E+02
 9.65085E+02	 6.75507E+02
 9.68042E+02	 6.75167E+02
 9.70997E+02	 6.76517E+02
 9.73952E+02	 6.76260E+02
 9.76905E+02	 6.75710E+02
 9.79856E+02	 6.75583E+02
 9.82807E+02	 6.75930E+02
 9.85756E+02	 6.75797E+02
 9.88704E+02	 6.76133E+02
 9.91650E+02	 6.75860E+02
 9.94596E+02	 6.75910E+02
 9.97539E+02	 6.75610E+02
 1.00048E+03	 6.75650E+02
 1.00342E+03	 6.75433E+02
 1.00636E+03	 6.76127E+02
 1.00930E+03	 6.75637E+02
 1.01224E+03	 6.75933E+02
 1.01518E+03	 6.75620E+02
 1.01811E+03	 6.75980E+02
 1.02105E+03	 6.75377E+02
 1.02398E+03	 6.75783E+02
 1.02691E+03	 6.75697E+02
 1.02984E+03	 6.75830E+02
 1.03277E+03	 6.76123E+02
 1.03569E+03	 6.75910E+02
 1.03862E+03	 6.75700E+02
 1.04155E+03	 6.75980E+02
 1.04447E+03	 6.75887E+02
 1.04739E+03	 6.76050E+02
 1.05031E+03	 6.75820E+02
 1.05323E+03	 6.76360E+02
 1.05615E+03	 6.75473E+02
 1.05907E+03	 6.76000E+02
 1.06198E+03	 6.76087E+02
 1.06490E+03	 6.76290E+02
 1.06781E+03	 6.75607E+02
 1.07072E+03	 6.75877E+02
 1.07363E+03	 6.75380E+02
 1.07654E+03	 6.75927E+02
 1.07945E+03	 6.75610E+02
 1.08236E+03	 6.75757E+02
 1.08527E+03	 6.75523E+02
 1.08817E+03	 6.76010E+02
 1.09107E+03	 6.75793E+02
 1.09397E+03	 6.75723E+02
 1.09688E+03	 6.75570E+02
 1.09978E+03	 6.75787E+02
 1.10267E+03	 6.75443E+02
 1.10557E+03	 6.76167E+02
 1.10847E+03	 6.75577E+02
 1.11136E+03	 6.76107E+02
 1.11425E+03	 6.75797E+02
 1.11715E+03	 6.76000E+02
 1.12004E+03	 6.75367E+02
 1.12293E+03	 6.75993E+02
 1.12581E+03	 6.75490E+02
 1.12870E+03	 6.75430E+02
 1.13159E+03	 6.75537E+02
 1.13447E+03	 6.75907E+02
 1.13735E+03	 6.75513E+02
 1.14024E+03	 6.75643E+02
 1.14312E+03	 6.75570E+02
 1.14600E+03	 6.75560E+02
 1.14887E+03	 6.75560E+02
 1.15175E+03	 6.75903E+02
 1.15463E+03	 6.75380E+02
 1.15750E+03	 6.75977E+02
 1.16038E+03	 6.75713E+02
 1.16325E+03	 6.75730E+02
 1.16612E+03	 6.75037E+02
 1.16899E+03	 6.75660E+02
 1.17186E+03	 6.75373E+02
 1.17472E+03	 6.75687E+02
 1.17759E+03	 6.75360E+02
 1.18045E+03	 6.75687E+02
 1.18332E+03	 6.75053E+02
 1.18618E+03	 6.76033E+02
 1.18904E+03	 6.75593E+02
 1.19190E+03	 6.75530E+02
 1.19476E+03	 6.75550E+02
 1.19761E+03	 6.75743E+02
 1.20047E+03	 6.75583E+02
 1.20333E+03	 6.75670E+02
 1.20618E+03	 6.75303E+02
 1.20903E+03	 6.75850E+02
 1.21188E+03	 6.75677E+02
 1.21473E+03	 6.75597E+02
 1.21758E+03	 6.75473E+02
 1.22043E+03	 6.75667E+02
 1.22327E+03	 6.75297E+02
 1.22612E+03	 6.76070E+02
 1.22896E+03	 6.75260E+02
 1.23180E+03	 6.75637E+02
 1.23465E+03	 6.75383E+02
 1.23749E+03	 6.75497E+02
 1.24032E+03	 6.75440E+02
 1.24316E+03	 6.75443E+02
 1.24600E+03	 6.75220E+02
 1.24883E+03	 6.76023E+02
 1.25167E+03	 6.74997E+02
 1.25450E+03	 6.75723E+02
 1.25733E+03	 6.75523E+02
 1.26016E+03	 6.75847E+02
 1.26299E+03	 6.75263E+02
 1.26582E+03	 6.75873E+02
 1.26865E+03	 6.75520E+02
 1.27147E+03	 6.75667E+02
 1.27429E+03	 6.75330E+02
 1.27712E+03	 6.75903E+02
 1.27994E+03	 6.75660E+02
 1.28276E+03	 6.75597E+02
 1.28558E+03	 6.75403E+02
 1.28840E+03	 6.75637E+02
 1.29121E+03	 6.74907E+02
 1.29403E+03	 6.75677E+02
 1.29684E+03	 6.75277E+02
 1.29966E+03	 6.75623E+02
 1.30247E+03	 6.75230E+02
 1.30528E+03	 6.75483E+02
 1.30809E+03	 6.75307E+02
 1.31090E+03	 6.75543E+02
 1.31371E+03	 6.75363E+02
 1.31651E+03	 6.75690E+02
 1.31932E+03	 6.75967E+02
 1.32212E+03	 6.75443E+02
 1.32492E+03	 6.75217E+02
 1.32772E+03	 6.75743E+02
 1.33052E+03	 6.75650E+02
 1.33332E+03	 6.75500E+02
 1.33612E+03	 6.75413E+02
 1.33892E+03	 6.75797E+02
 1.34171E+03	 6.75230E+02
 1.34451E+03	 6.75820E+02
 1.34730E+03	 6.75560E+02
 1.35009E+03	 6.75557E+02
 1.35288E+03	 6.75390E+02
 1.35567E+03	 6.75880E+02
 1.35846E+03	 6.75273E+02
 1.36124E+03	 6.75747E+02
 1.36403E+03	 6.75483E+02
 1.36682E+03	 6.75607E+02
 1.36960E+03	 6.75773E+02
 1.37238E+03	 6.75273E+02
 1.37516E+03	 6.76067E+02
 1.37794E+03	 6.75793E+02
 1.38072E+03	 6.75603E+02
 1.38350E+03	 6.76273E+02
 1.38627E+03	 6.75557E+02
 1.38905E+03	 6.75873E+02
 1.39182E+03	 6.75463E+02
 1.39459E+03	 6.75577E+02
 1.39737E+03	 6.75773E+02
 1.40014E+03	 6.76320E+02
 1.40291E+03	 6.75727E+02
 1.40567E+03	 6.76000E+02
 1.40844E+03	 6.75627E+02
 1.41121E+03	 6.75783E+02
 1.41397E+03	 6.75537E+02
 1.41673E+03	 6.75800E+02
 1.41950E+03	 6.75470E+02
 1.42226E+03	 6.75577E+02
 1.42502E+03	 6.75610E+02
 1.42777E+03	 6.75530E+02
 1.43053E+03	 6.76067E+02
 1.43329E+03	 6.75983E+02
 1.43604E+03	 6.75563E+02
 1.43880E+03	 6.75640E+02
 1.44155E+03	 6.75810E+02
 1.44430E+03	 6.75743E+02
 1.44705E+03	 6.75637E+02
 1.44980E+03	 6.75767E+02
 1.45255E+03	 6.75907E+02
 1.45529E+03	 6.77053E+02
 1.45804E+03	 6.75600E+02
 1.46078E+03	 6.75463E+02
 1.46353E+03	 6.75317E+02
 1.46627E+03	 6.75893E+02
 1.46901E+03	 6.75253E+02
 1.47175E+03	 6.75983E+02
 1.47449E+03	 6.74990E+02
 1.47723E+03	 6.76163E+02
 1.47996E+03	 6.75700E+02
 1.48270E+03	 6.75900E+02
 1.48543E+03	 6.75573E+02
 1.48816E+03	 6.75980E+02
 1.49090E+03	 6.75650E+02
 1.49363E+03	 6.75493E+02
 1.49636E+03	 6.75913E+02
 1.49908E+03	 6.75723E+02
 1.50181E+03	 6.75560E+02
 1.50454E+03	 6.75827E+02
 1.50726E+03	 6.75490E+02
 1.50998E+03	 6.75887E+02
 1.51271E+03	 6.75443E+02
 1.51543E+03	 6.75667E+02
 1.51815E+03	 6.75417E+02
 1.52087E+03	 6.75490E+02
 1.52359E+03	 6.75633E+02
 1.52630E+03	 6.75417E+02
 1.52902E+03	 6.75487E+02
 1.53173E+03	 6.75490E+02
 1.53444E+03	 6.75590E+02
 1.53716E+03	 6.75543E+02
 1.53987E+03	 6.75703E+02
 1.54258E+03	 6.75660E+02
 1.54529E+03	 6.75230E+02
 1.54799E+03	 6.75520E+02
 1.55070E+03	 6.75477E+02
 1.55340E+03	 6.75827E+02
 1.55611E+03	 6.75470E+02
 1.55881E+03	 6.75597E+02
 1.56151E+03	 6.75063E+02
 1.56421E+03	 6.75613E+02
 1.56691E+03	 6.75387E+02
 1.56961E+03	 6.75773E+02
 1.57231E+03	 6.75027E+02
 1.57500E+03	 6.75430E+02
 1.57770E+03	 6.75230E+02
 1.58039E+03	 6.75723E+02
 1.58309E+03	 6.75407E+02
 1.58578E+03	 6.75547E+02
 1.58847E+03	 6.75147E+02
 1.59116E+03	 6.75357E+02
 1.59384E+03	 6.75203E+02
 1.59653E+03	 6.75620E+02
 1.59922E+03	 6.75140E+02
 1.60190E+03	 6.75547E+02
 1.60459E+03	 6.75303E+02
 1.60727E+03	 6.75633E+02
 1.60995E+03	 6.75120E+02
 1.61263E+03	 6.75317E+02
 1.61531E+03	 6.75513E+02
 1.61799E+03	 6.75250E+02
 1.62066E+03	 6.75557E+02
 1.62334E+03	 6.75513E+02
 1.62601E+03	 6.75383E+02
 1.62869E+03	 6.75507E+02
 1.63136E+03	 6.75277E+02
 1.63403E+03	 6.75553E+02
 1.63670E+03	 6.75490E+02
 1.63937E+03	 6.75673E+02
 1.64204E+03	 6.75290E+02
 1.64470E+03	 6.75687E+02
 1.64737E+03	 6.75297E+02
 1.65003E+03	 6.75303E+02
 1.65269E+03	 6.75477E+02
 1.65536E+03	 6.75563E+02
 1.65802E+03	 6.75327E+02
 1.66068E+03	 6.75653E+02
 1.66334E+03	 6.75183E+02
 1.66599E+03	 6.75863E+02
 1.66865E+03	 6.75253E+02
 1.67131E+03	 6.75543E+02
 1.67396E+03	 6.75260E+02
 1.67661E+03	 6.75573E+02
 1.67927E+03	 6.75113E+02
 1.68192E+03	 6.75720E+02
 1.68457E+03	 6.75390E+02
 1.68722E+03	 6.75553E+02
 1.68986E+03	 6.75153E+02
 1.69251E+03	 6.75643E+02
 1.69515E+03	 6.75020E+02
 1.69780E+03	 6.75707E+02
 1.70044E+03	 6.75360E+02
 1.70308E+03	 6.75473E+02
 1.70572E+03	 6.75380E+02
 1.70836E+03	 6.75253E+02
 1.71100E+03	 6.75517E+02
 1.71364E+03	 6.75560E+02
 1.71628E+03	 6.75517E+02
 1.71891E+03	 6.75953E+02
 1.72155E+03	 6.75400E+02
 1.72418E+03	 6.75420E+02
 1.72681E+03	 6.75310E+02
 1.72944E+03	 6.75413E+02
 1.73207E+03	 6.75200E+02
 1.73470E+03	 6.75570E+02
 1.73733E+03	 6.75533E+02
 1.73996E+03	 6.75613E+02
 1.74258E+03	 6.75453E+02
 1.74521E+03	 6.75577E+02
 1.74783E+03	 6.75333E+02
 1.75045E+03	 6.75430E+02
 1.75307E+03	 6.75217E+02
 1.75569E+03	 6.75800E+02
 1.75831E+03	 6.75620E+02
 1.76093E+03	 6.75710E+02
 1.76355E+03	 6.75267E+02
 1.76616E+03	 6.75407E+02
 1.76878E+03	 6.75280E+02
 1.77139E+03	 6.75313E+02
 1.77400E+03	 6.75480E+02
 1.77661E+03	 6.75727E+02
 1.77922E+03	 6.75570E+02
 1.78183E+03	 6.75773E+02
 1.78444E+03	 6.75660E+02
 1.78705E+03	 6.75923E+02
 1.78965E+03	 6.75400E+02
 1.79226E+03	 6.75547E+02
 1.79486E+03	 6.75343E+02
 1.79746E+03	 6.75700E+02
 1.80007E+03	 6.75337E+02
 1.80267E+03	 6.75560E+02
 1.80527E+03	 6.75070E+02
 1.80786E+03	 6.75453E+02
 1.81046E+03	 6.75150E+02
 1.81306E+03	 6.75143E+02
 1.81565E+03	 6.75193E+02
 1.81825E+03	 6.75450E+02
 1.82084E+03	 6.75020E+02
 1.82343E+03	 6.75433E+02
 1.82602E+03	 6.76260E+02
 1.82861E+03	 6.75737E+02
 1.83120E+03	 6.75447E+02
 1.83379E+03	 6.75307E+02
 1.83637E+03	 6.74823E+02
 1.83896E+03	 6.75397E+02
 1.84154E+03	 6.75423E+02
 1.84413E+03	 6.75990E+02
 1.84671E+03	 6.75253E+02
 1.84929E+03	 6.75580E+02
 1.85187E+03	 6.75263E+02
 1.85445E+03	 6.75480E+02
 1.85702E+03	 6.74897E+02
 1.85960E+03	 6.75437E+02
 1.86218E+03	 6.75037E+02
 1.86475E+03	 6.75303E+02
 1.86732E+03	 6.75203E+02
 1.86990E+03	 6.75363E+02
 1.87247E+03	 6.75157E+02
 1.87504E+03	 6.74953E+02
 1.87761E+03	 6.75090E+02
 1.88018E+03	 6.74947E+02
 1.88274E+03	 6.74870E+02
 1.88531E+03	 6.75317E+02
 1.88787E+03	 6.74940E+02
 1.89044E+03	 6.75127E+02
 1.89300E+03	 6.75340E+02
 1.89556E+03	 6.75427E+02
 1.89812E+03	 6.75433E+02
 1.90068E+03	 6.75463E+02
 1.90324E+03	 6.74980E+02
 1.90580E+03	 6.75770E+02
 1.90835E+03	 6.74920E+02
 1.91091E+03	 6.75117E+02
 1.91346E+03	 6.75213E+02
 1.91602E+03	 6.75207E+02
 1.91857E+03	 6.75193E+02
 1.92112E+03	 6.75250E+02
 1.92367E+03	 6.75173E+02
 1.92622E+03	 6.75280E+02
 1.92877E+03	 6.74973E+02
 1.93131E+03	 6.75207E+02
 1.93386E+03	 6.74760E+02
 1.93641E+03	 6.75510E+02
 1.93895E+03	 6.75117E+02
 1.94149E+03	 6.75210E+02
 1.94403E+03	 6.74660E+02
 1.94657E+03	 6.75337E+02
 1.94911E+03	 6.75160E+02
 1.95165E+03	 6.74980E+02
 1.95419E+03	 6.74910E+02
 1.95673E+03	 6.76490E+02
 1.95926E+03	 6.75107E+02
 1.96179E+03	 6.75100E+02
 1.96433E+03	 6.75120E+02
 1.96686E+03	 6.75290E+02
 1.96939E+03	 6.74947E+02
 1.97192E+03	 6.75510E+02
 1.97445E+03	 6.75017E+02
 1.97698E+03	 6.75417E+02
 1.97951E+03	 6.74937E+02
 1.98203E+03	 6.75140E+02
 1.98456E+03	 6.74817E+02
 1.98708E+03	 6.75303E+02
 1.98960E+03	 6.75057E+02
 1.99212E+03	 6.75453E+02
 1.99465E+03	 6.75060E+02
 1.99716E+03	 6.75233E+02
 1.99968E+03	 6.74833E+02
 2.00220E+03	 6.75723E+02
 2.00472E+03	 6.74900E+02
 2.00723E+03	 6.75490E+02
 2.00975E+03	 6.75227E+02
 2.01226E+03	 6.76083E+02
 2.01477E+03	 6.76067E+02
 2.01728E+03	 6.75317E+02
 2.01980E+03	 6.75247E+02
 2.02230E+03	 6.75457E+02
 2.02481E+03	 6.75103E+02
 2.02732E+03	 6.75223E+02
 2.02983E+03	 6.75220E+02
 2.03233E+03	 6.75457E+02
 2.03484E+03	 6.74967E+02
 2.03734E+03	 6.75323E+02
 2.03984E+03	 6.74913E+02
 2.04234E+03	 6.75503E+02
 2.04484E+03	 6.75277E+02
 2.04734E+03	 6.75013E+02
 2.04984E+03	 6.75033E+02
 2.05234E+03	 6.75267E+02
 2.05483E+03	 6.75407E+02
 2.05733E+03	 6.75350E+02
 2.05982E+03	 6.75427E+02
 2.06231E+03	 6.75557E+02
 2.06480E+03	 6.75357E+02
 2.06730E+03	 6.75230E+02
 2.06978E+03	 6.75113E+02
 2.07227E+03	 6.77343E+02
 2.07476E+03	 6.75080E+02
 2.07725E+03	 6.75183E+02
 2.07973E+03	 6.74803E+02
 2.08222E+03	 6.75067E+02
 2.08470E+03	 6.74993E+02
 2.08718E+03	 6.75340E+02
 2.08967E+03	 6.74857E+02
 2.09215E+03	 6.75177E+02
 2.09463E+03	 6.74937E+02
 2.09710E+03	 6.75240E+02
 2.09958E+03	 6.74940E+02
 2.10206E+03	 6.75143E+02
 2.10453E+03	 6.75010E+02
 2.10701E+03	 6.75307E+02
 2.10948E+03	 6.74913E+02
 2.11195E+03	 6.75447E+02
 2.11443E+03	 6.75223E+02
 2.11690E+03	 6.75673E+02
 2.11937E+03	 6.75073E+02
 2.12183E+03	 6.75563E+02
 2.12430E+03	 6.74940E+02
 2.12677E+03	 6.75113E+02
 2.12923E+03	 6.74757E+02
 2.13170E+03	 6.74877E+02
 2.13416E+03	 6.74690E+02
 2.13662E+03	 6.75053E+02
 2.13908E+03	 6.74797E+02
 2.14154E+03	 6.75163E+02
 2.14400E+03	 6.75177E+02
 2.14646E+03	 6.75110E+02
 2.14892E+03	 6.74690E+02
 2.15138E+03	 6.75270E+02
 2.15383E+03	 6.74783E+02
 2.15629E+03	 6.75027E+02
 2.15874E+03	 6.75140E+02
 2.16119E+03	 6.75320E+02
 2.16364E+03	 6.74413E+02
 2.16609E+03	 6.75357E+02
 2.16854E+03	 6.74903E+02
 2.17099E+03	 6.75080E+02
 2.17344E+03	 6.74487E+02
 2.17588E+03	 6.75087E+02
 2.17833E+03	 6.74780E+02
 2.18077E+03	 6.74950E+02
 2.18322E+03	 6.74963E+02
 2.18566E+03	 6.75067E+02
 2.18810E+03	 6.74660E+02
 2.19054E+03	 6.75103E+02
 2.19298E+03	 6.74633E+02
 2.19542E+03	 6.74563E+02
 2.19785E+03	 6.75127E+02
 2.20029E+03	 6.75120E+02
 2.20273E+03	 6.74980E+02
 2.20516E+03	 6.75023E+02
 2.20759E+03	 6.74987E+02
 2.21003E+03	 6.75290E+02
 2.21246E+03	 6.75283E+02
 2.21489E+03	 6.75357E+02
 2.21732E+03	 6.75067E+02
 2.21975E+03	 6.74980E+02
 2.22217E+03	 6.74607E+02
 2.22460E+03	 6.75043E+02
 2.22702E+03	 6.74477E+02
 2.22945E+03	 6.74873E+02
 2.23187E+03	 6.75120E+02
 2.23429E+03	 6.74937E+02
 2.23672E+03	 6.75010E+02
 2.23914E+03	 6.75090E+02
 2.24156E+03	 6.74913E+02
 2.24397E+03	 6.74683E+02
 2.24639E+03	 6.74623E+02
 2.24881E+03	 6.75307E+02
 2.25122E+03	 6.74870E+02
 2.25364E+03	 6.75223E+02
 2.25605E+03	 6.74603E+02
 2.25846E+03	 6.75187E+02
 2.26088E+03	 6.74360E+02
 2.26329E+03	 6.75157E+02
 2.26570E+03	 6.75243E+02
 2.26811E+03	 6.75043E+02
 2.27051E+03	 6.74887E+02
 2.27292E+03	 6.75433E+02
 2.27533E+03	 6.74787E+02
 2.27773E+03	 6.75143E+02
 2.28013E+03	 6.75040E+02
 2.28254E+03	 6.74963E+02
 2.28494E+03	 6.74810E+02
 2.28734E+03	 6.75200E+02
 2.28974E+03	 6.75217E+02
 2.29214E+03	 6.74980E+02
 2.29454E+03	 6.74780E+02
 2.29693E+03	 6.75010E+02
 2.29933E+03	 6.74897E+02
 2.30172E+03	 6.75233E+02
 2.30412E+03	 6.75007E+02
 2.30651E+03	 6.75227E+02
 2.30890E+03	 6.75123E+02
 2.31129E+03	 6.75163E+02
 2.31368E+03	 6.75193E+02
 2.31607E+03	 6.74923E+02
 2.31846E+03	 6.74760E+02
 2.32085E+03	 6.75433E+02
 2.32324E+03	 6.74750E+02
 2.32562E+03	 6.75147E+02
 2.32801E+03	 6.75140E+02
 2.33039E+03	 6.75097E+02
 2.33277E+03	 6.74817E+02
 2.33515E+03	 6.75210E+02
 2.33753E+03	 6.74753E+02
 2.33991E+03	 6.75067E+02
 2.34229E+03	 6.74913E+02
 2.34467E+03	 6.75147E+02
 2.34705E+03	 6.74827E+02
 2.34942E+03	 6.74830E+02
 2.35180E+03	 6.74950E+02
 2.35417E+03	 6.75543E+02
 2.35654E+03	 6.74830E+02
 2.35891E+03	 6.75027E+02
 2.36129E+03	 6.74737E+02
 2.36366E+03	 6.75110E+02
 2.36602E+03	 6.74593E+02
 2.36839E+03	 6.74920E+02
 2.37076E+03	 6.74937E+02
 2.37313E+03	 6.74770E+02
 2.37549E+03	 6.74700E+02
 2.37786E+03	 6.74827E+02
 2.38022E+03	 6.74637E+02
 2.38258E+03	 6.75040E+02
 2.38494E+03	 6.74697E+02
 2.38730E+03	 6.74973E+02
 2.38966E+03	 6.74990E+02
 2.39202E+03	 6.74547E+02
 2.39438E+03	 6.74733E+02
 2.39673E+03	 6.74737E+02
 2.39909E+03	 6.74490E+02
 2.40145E+03	 6.75043E+02
 2.40380E+03	 6.74500E+02
 2.40615E+03	 6.74930E+02
 2.40850E+03	 6.74390E+02
 2.41085E+03	 6.74963E+02
 2.41320E+03	 6.74813E+02
 2.41555E+03	 6.75023E+02
 2.41790E+03	 6.74613E+02
 2.42025E+03	 6.74797E+02
 2.42259E+03	 6.74470E+02
 2.42494E+03	 6.74957E+02
 2.42728E+03	 6.74377E+02
 2.42963E+03	 6.74963E+02
 2.43197E+03	 6.74667E+02
 2.43431E+03	 6.74817E+02
 2.43665E+03	 6.74517E+02
 2.43899E+03	 6.74890E+02
 2.44133E+03	 6.74543E+02
 2.44367E+03	 6.74817E+02
 2.44600E+03	 6.74400E+02
 2.44834E+03	 6.74390E+02
 2.45067E+03	 6.74470E+02
 2.45301E+03	 6.74400E+02
 2.45534E+03	 6.74270E+02
 2.45767E+03	 6.74763E+02
 2.46001E+03	 6.74647E+02
 2.46234E+03	 6.74667E+02
 2.46466E+03	 6.74327E+02
 2.46699E+03	 6.74837E+02
 2.46932E+03	 6.74423E+02
 2.47165E+03	 6.74833E+02
 2.47397E+03	 6.74480E+02
 2.47630E+03	 6.74800E+02
 2.47862E+03	 6.74230E+02
 2.48094E+03	 6.74470E+02
 2.48326E+03	 6.74363E+02
 2.48559E+03	 6.74440E+02
 2.48791E+03	 6.74267E+02
 2.49022E+03	 6.74543E+02
 2.49254E+03	 6.74017E+02
 2.49486E+03	 6.74763E+02
 2.49718E+03	 6.74133E+02
 2.49949E+03	 6.74620E+02
 2.50181E+03	 6.74237E+02
 2.50412E+03	 6.74440E+02
 2.50643E+03	 6.74067E+02
 2.50874E+03	 6.74620E+02
 2.51105E+03	 6.74350E+02
 2.51336E+03	 6.74910E+02
 2.51567E+03	 6.73993E+02
 2.51798E+03	 6.74757E+02
 2.52029E+03	 6.74020E+02
 2.52259E+03	 6.74580E+02
 2.52490E+03	 6.74090E+02
 2.52720E+03	 6.74470E+02
 2.52951E+03	 6.74047E+02
 2.53181E+03	 6.74267E+02
 2.53411E+03	 6.74833E+02
 2.53641E+03	 6.74310E+02
 2.53871E+03	 6.73880E+02
 2.54101E+03	 6.74510E+02
 2.54331E+03	 6.73747E+02
 2.54560E+03	 6.74193E+02
 2.54790E+03	 6.73983E+02
 2.55019E+03	 6.74423E+02
 2.55249E+03	 6.73957E+02
 2.55478E+03	 6.74320E+02
 2.55707E+03	 6.74310E+02
 2.55936E+03	 6.74343E+02
 2.56165E+03	 6.73903E+02
 2.56394E+03	 6.74130E+02
 2.56623E+03	 6.74033E+02
 2.56852E+03	 6.74313E+02
 2.57081E+03	 6.73777E+02
 2.57309E+03	 6.74367E+02
 2.57538E+03	 6.74087E+02
 2.57766E+03	 6.74483E+02
 2.57994E+03	 6.74123E+02
 2.58223E+03	 6.74247E+02
 2.58451E+03	 6.73963E+02
 2.58679E+03	 6.74167E+02
 2.58907E+03	 6.74103E+02
 2.59135E+03	 6.74020E+02
 2.59362E+03	 6.73983E+02
 2.59590E+03	 6.74060E+02
 2.59818E+03	 6.73690E+02
 2.60045E+03	 6.74273E+02
 2.60272E+03	 6.74010E+02
 2.60500E+03	 6.74127E+02
 2.60727E+03	 6.74030E+02
 2.60954E+03	 6.74200E+02
 2.61181E+03	 6.73693E+02
 2.61408E+03	 6.74003E+02
 2.61635E+03	 6.74127E+02
 2.61862E+03	 6.74090E+02
 2.62088E+03	 6.73717E+02
 2.62315E+03	 6.73847E+02
 2.62541E+03	 6.73620E+02
 2.62768E+03	 6.73887E+02
 2.62994E+03	 6.73680E+02
 2.63220E+03	 6.74003E+02
 2.63447E+03	 6.73707E+02
 2.63673E+03	 6.73780E+02
 2.63899E+03	 6.73407E+02
 2.64124E+03	 6.73730E+02
 2.64350E+03	 6.73480E+02
 2.64576E+03	 6.73787E+02
 2.64801E+03	 6.73413E+02
 2.65027E+03	 6.73787E+02
 2.65252E+03	 6.73447E+02
 2.65478E+03	 6.73697E+02
 2.65703E+03	 6.73253E+02
 2.65928E+03	 6.73343E+02
 2.66153E+03	 6.73150E+02
 2.66378E+03	 6.73620E+02
 2.66603E+03	 6.72860E+02
 2.66828E+03	 6.73067E+02
 2.67052E+03	 6.72547E+02
 2.67277E+03	 6.73253E+02
 2.67502E+03	 6.72783E+02
 2.67726E+03	 6.72570E+02
 2.67950E+03	 6.72047E+02
 2.68175E+03	 6.72600E+02
 2.68399E+03	 6.72347E+02
 2.68623E+03	 6.71983E+02
 2.68847E+03	 6.71853E+02
 2.69071E+03	 6.71703E+02
 2.69295E+03	 6.71007E+02
 2.69518E+03	 6.71110E+02
 2.69742E+03	 6.70840E+02
 2.69966E+03	 6.70320E+02
 2.70189E+03	 6.69510E+02
 2.70412E+03	 6.69633E+02
 2.70636E+03	 6.68810E+02
 2.70859E+03	 6.68807E+02
 2.71082E+03	 6.67273E+02
 2.71305E+03	 6.67190E+02
 2.71528E+03	 6.65830E+02
 2.71751E+03	 6.65293E+02
 2.71973E+03	 6.63737E+02
